 6.71012E+01, 7.35400E+02
 6.84040E+01, 7.33800E+02
 6.97066E+01, 7.30600E+02
 7.10090E+01, 7.34200E+02
 7.23111E+01, 7.29600E+02
 7.36129E+01, 7.33800E+02
 7.49144E+01, 7.32600E+02
 7.62156E+01, 7.34000E+02
 7.75166E+01, 7.36600E+02
 7.88174E+01, 7.43000E+02
 8.01178E+01, 7.49400E+02
 8.14180E+01, 7.68800E+02
 8.27179E+01, 7.83000E+02
 8.40176E+01, 7.99800E+02
 8.53170E+01, 8.11000E+02
 8.66161E+01, 8.14600E+02
 8.79150E+01, 8.13000E+02
 8.92136E+01, 8.14400E+02
 9.05119E+01, 8.14200E+02
 9.18099E+01, 8.21200E+02
 9.31077E+01, 8.14000E+02
 9.44052E+01, 8.20600E+02
 9.57025E+01, 8.18000E+02
 9.69995E+01, 8.08400E+02
 9.82962E+01, 8.10000E+02
 9.95926E+01, 8.14200E+02
 1.00889E+02, 8.15800E+02
 1.02185E+02, 8.12000E+02
 1.03480E+02, 8.08800E+02
 1.04776E+02, 8.03800E+02
 1.06071E+02, 8.04000E+02
 1.07366E+02, 8.05000E+02
 1.08660E+02, 8.07400E+02
 1.09955E+02, 8.07800E+02
 1.11249E+02, 8.03000E+02
 1.12542E+02, 8.08400E+02
 1.13836E+02, 8.02400E+02
 1.15129E+02, 8.10200E+02
 1.16422E+02, 8.08800E+02
 1.17715E+02, 8.23400E+02
 1.19007E+02, 8.17400E+02
 1.20299E+02, 8.21400E+02
 1.21591E+02, 8.35000E+02
 1.22883E+02, 8.47000E+02
 1.24174E+02, 8.61000E+02
 1.25466E+02, 8.99400E+02
 1.26756E+02, 9.40000E+02
 1.28047E+02, 1.00120E+03
 1.29337E+02, 1.07120E+03
 1.30627E+02, 1.10900E+03
 1.31917E+02, 1.08760E+03
 1.33207E+02, 1.02220E+03
 1.34496E+02, 9.49600E+02
 1.35785E+02, 9.05000E+02
 1.37074E+02, 8.70400E+02
 1.38362E+02, 8.43400E+02
 1.39650E+02, 8.36800E+02
 1.40938E+02, 8.26000E+02
 1.42226E+02, 8.14800E+02
 1.43513E+02, 8.12600E+02
 1.44800E+02, 8.09600E+02
 1.46087E+02, 8.04600E+02
 1.47374E+02, 7.96600E+02
 1.48660E+02, 7.99000E+02
 1.49946E+02, 7.99200E+02
 1.51232E+02, 8.00200E+02
 1.52517E+02, 8.00800E+02
 1.53803E+02, 7.98000E+02
 1.55088E+02, 7.90400E+02
 1.56372E+02, 7.91600E+02
 1.57657E+02, 7.86800E+02
 1.58941E+02, 7.84800E+02
 1.60225E+02, 7.86200E+02
 1.61509E+02, 7.82600E+02
 1.62792E+02, 7.87000E+02
 1.64075E+02, 7.77800E+02
 1.65358E+02, 7.86200E+02
 1.66641E+02, 7.86000E+02
 1.67923E+02, 7.85400E+02
 1.69205E+02, 7.82400E+02
 1.70487E+02, 7.85600E+02
 1.71769E+02, 7.81600E+02
 1.73050E+02, 7.88800E+02
 1.74331E+02, 7.90200E+02
 1.75612E+02, 7.89000E+02
 1.76892E+02, 7.90600E+02
 1.78172E+02, 7.92400E+02
 1.79452E+02, 7.93000E+02
 1.80732E+02, 7.99800E+02
 1.82011E+02, 8.01000E+02
 1.83291E+02, 7.99800E+02
 1.84569E+02, 8.03000E+02
 1.85848E+02, 8.02600E+02
 1.87127E+02, 8.08200E+02
 1.88405E+02, 8.12800E+02
 1.89682E+02, 8.18000E+02
 1.90960E+02, 8.22400E+02
 1.92237E+02, 8.28600E+02
 1.93514E+02, 8.39800E+02
 1.94791E+02, 8.47200E+02
 1.96068E+02, 8.62400E+02
 1.97344E+02, 8.67400E+02
 1.98620E+02, 8.78200E+02
 1.99896E+02, 8.81600E+02
 2.01171E+02, 8.95600E+02
 2.02446E+02, 9.14400E+02
 2.03721E+02, 9.23400E+02
 2.04996E+02, 9.28600E+02
 2.06270E+02, 9.41600E+02
 2.07545E+02, 9.38800E+02
 2.08818E+02, 9.41800E+02
 2.10092E+02, 9.50000E+02
 2.11365E+02, 9.37400E+02
 2.12639E+02, 9.40800E+02
 2.13911E+02, 9.31600E+02
 2.15184E+02, 9.31400E+02
 2.16456E+02, 9.19400E+02
 2.17728E+02, 9.07200E+02
 2.19000E+02, 8.88400E+02
 2.20272E+02, 8.91800E+02
 2.21543E+02, 8.78600E+02
 2.22814E+02, 8.74000E+02
 2.24085E+02, 8.61200E+02
 2.25355E+02, 8.50800E+02
 2.26625E+02, 8.40400E+02
 2.27895E+02, 8.35200E+02
 2.29165E+02, 8.29400E+02
 2.30434E+02, 8.20200E+02
 2.31703E+02, 8.21400E+02
 2.32972E+02, 8.08600E+02
 2.34241E+02, 8.06800E+02
 2.35509E+02, 8.02000E+02
 2.36777E+02, 7.96000E+02
 2.38045E+02, 7.92800E+02
 2.39313E+02, 7.88800E+02
 2.40580E+02, 7.81200E+02
 2.41847E+02, 7.88800E+02
 2.43114E+02, 7.81000E+02
 2.44380E+02, 7.82000E+02
 2.45647E+02, 7.80800E+02
 2.46913E+02, 7.80200E+02
 2.48178E+02, 7.72800E+02
 2.49444E+02, 7.80000E+02
 2.50709E+02, 7.76400E+02
 2.51974E+02, 7.74000E+02
 2.53239E+02, 7.73400E+02
 2.54503E+02, 7.71200E+02
 2.55767E+02, 7.73200E+02
 2.57031E+02, 7.70000E+02
 2.58295E+02, 7.76200E+02
 2.59558E+02, 7.69600E+02
 2.60821E+02, 7.68800E+02
 2.62084E+02, 7.70400E+02
 2.63347E+02, 7.73000E+02
 2.64609E+02, 7.82600E+02
 2.65871E+02, 7.87000E+02
 2.67133E+02, 7.86200E+02
 2.68394E+02, 7.85600E+02
 2.69656E+02, 7.77800E+02
 2.70917E+02, 7.76400E+02
 2.72178E+02, 7.65200E+02
 2.73438E+02, 7.68600E+02
 2.74698E+02, 7.66800E+02
 2.75958E+02, 7.63200E+02
 2.77218E+02, 7.57400E+02
 2.78477E+02, 7.60400E+02
 2.79737E+02, 7.60600E+02
 2.80995E+02, 7.60400E+02
 2.82254E+02, 7.54200E+02
 2.83513E+02, 7.58200E+02
 2.84771E+02, 7.57800E+02
 2.86029E+02, 7.55800E+02
 2.87286E+02, 7.56000E+02
 2.88544E+02, 7.53800E+02
 2.89801E+02, 7.55400E+02
 2.91057E+02, 7.54400E+02
 2.92314E+02, 7.54200E+02
 2.93570E+02, 7.55000E+02
 2.94826E+02, 7.56200E+02
 2.96082E+02, 7.54600E+02
 2.97338E+02, 7.55000E+02
 2.98593E+02, 7.56200E+02
 2.99848E+02, 7.51200E+02
 3.01103E+02, 7.55400E+02
 3.02357E+02, 7.53400E+02
 3.03611E+02, 7.54000E+02
 3.04865E+02, 7.55400E+02
 3.06119E+02, 7.54200E+02
 3.07373E+02, 7.53200E+02
 3.08626E+02, 7.52800E+02
 3.09879E+02, 7.55400E+02
 3.11131E+02, 7.49400E+02
 3.12384E+02, 7.51800E+02
 3.13636E+02, 7.58600E+02
 3.14888E+02, 7.54200E+02
 3.16139E+02, 7.51400E+02
 3.17391E+02, 7.52400E+02
 3.18642E+02, 7.51200E+02
 3.19893E+02, 7.52200E+02
 3.21143E+02, 7.48200E+02
 3.22394E+02, 7.52600E+02
 3.23644E+02, 7.55800E+02
 3.24893E+02, 7.52200E+02
 3.26143E+02, 7.51600E+02
 3.27392E+02, 7.50800E+02
 3.28641E+02, 7.54800E+02
 3.29890E+02, 7.53800E+02
 3.31139E+02, 7.54400E+02
 3.32387E+02, 7.52000E+02
 3.33635E+02, 7.51600E+02
 3.34882E+02, 7.54400E+02
 3.36130E+02, 7.50800E+02
 3.37377E+02, 7.52600E+02
 3.38624E+02, 7.54000E+02
 3.39871E+02, 7.54000E+02
 3.41117E+02, 7.55200E+02
 3.42363E+02, 7.52200E+02
 3.43609E+02, 7.55000E+02
 3.44855E+02, 7.55200E+02
 3.46100E+02, 7.52600E+02
 3.47345E+02, 7.55600E+02
 3.48590E+02, 7.58800E+02
 3.49835E+02, 7.56000E+02
 3.51079E+02, 7.58600E+02
 3.52323E+02, 7.62200E+02
 3.53567E+02, 7.65600E+02
 3.54811E+02, 7.83800E+02
 3.56054E+02, 8.02600E+02
 3.57297E+02, 8.25000E+02
 3.58540E+02, 8.29000E+02
 3.59782E+02, 8.00000E+02
 3.61025E+02, 7.82000E+02
 3.62267E+02, 7.61200E+02
 3.63508E+02, 7.53400E+02
 3.64750E+02, 7.54600E+02
 3.65991E+02, 7.53200E+02
 3.67232E+02, 7.58000E+02
 3.68473E+02, 7.53600E+02
 3.69713E+02, 7.54200E+02
 3.70954E+02, 7.52200E+02
 3.72194E+02, 7.54600E+02
 3.73433E+02, 7.52600E+02
 3.74673E+02, 7.58200E+02
 3.75912E+02, 7.51600E+02
 3.77151E+02, 7.53800E+02
 3.78389E+02, 7.55600E+02
 3.79628E+02, 7.55600E+02
 3.80866E+02, 7.56000E+02
 3.82104E+02, 7.56000E+02
 3.83342E+02, 7.58600E+02
 3.84579E+02, 7.60600E+02
 3.85816E+02, 7.59400E+02
 3.87053E+02, 7.57200E+02
 3.88289E+02, 7.61800E+02
 3.89526E+02, 7.59200E+02
 3.90762E+02, 7.60600E+02
 3.91998E+02, 7.63000E+02
 3.93233E+02, 7.71200E+02
 3.94469E+02, 7.84400E+02
 3.95704E+02, 8.00400E+02
 3.96938E+02, 8.16600E+02
 3.98173E+02, 8.08800E+02
 3.99407E+02, 7.97000E+02
 4.00641E+02, 7.92200E+02
 4.01875E+02, 7.86400E+02
 4.03108E+02, 7.80600E+02
 4.04342E+02, 7.83000E+02
 4.05575E+02, 7.81800E+02
 4.06807E+02, 7.75400E+02
 4.08040E+02, 7.71400E+02
 4.09272E+02, 7.64600E+02
 4.10504E+02, 7.64600E+02
 4.11736E+02, 7.62400E+02
 4.12967E+02, 7.58400E+02
 4.14198E+02, 7.59800E+02
 4.15429E+02, 7.63600E+02
 4.16660E+02, 7.57600E+02
 4.17890E+02, 7.58600E+02
 4.19121E+02, 7.55000E+02
 4.20351E+02, 7.57800E+02
 4.21580E+02, 7.56400E+02
 4.22810E+02, 7.61600E+02
 4.24039E+02, 7.60000E+02
 4.25268E+02, 7.61400E+02
 4.26496E+02, 7.60600E+02
 4.27725E+02, 7.54000E+02
 4.28953E+02, 7.60200E+02
 4.30181E+02, 7.58000E+02
 4.31408E+02, 7.60800E+02
 4.32635E+02, 7.62600E+02
 4.33863E+02, 7.61800E+02
 4.35089E+02, 7.59000E+02
 4.36316E+02, 7.65600E+02
 4.37542E+02, 7.58200E+02
 4.38768E+02, 7.66600E+02
 4.39994E+02, 7.71600E+02
 4.41220E+02, 7.71200E+02
 4.42445E+02, 7.70400E+02
 4.43670E+02, 7.73600E+02
 4.44895E+02, 7.74000E+02
 4.46119E+02, 7.77200E+02
 4.47344E+02, 7.86800E+02
 4.48568E+02, 7.94400E+02
 4.49791E+02, 7.99000E+02
 4.51015E+02, 8.11000E+02
 4.52238E+02, 8.27600E+02
 4.53461E+02, 8.39400E+02
 4.54684E+02, 8.55800E+02
 4.55906E+02, 8.71800E+02
 4.57128E+02, 8.84600E+02
 4.58350E+02, 9.17800E+02
 4.59572E+02, 9.63000E+02
 4.60794E+02, 1.01400E+03
 4.62015E+02, 1.10140E+03
 4.63236E+02, 1.19580E+03
 4.64456E+02, 1.31180E+03
 4.65677E+02, 1.45920E+03
 4.66897E+02, 1.58460E+03
 4.68117E+02, 1.58020E+03
 4.69337E+02, 1.53780E+03
 4.70556E+02, 1.43480E+03
 4.71775E+02, 1.29260E+03
 4.72994E+02, 1.17980E+03
 4.74213E+02, 1.09620E+03
 4.75431E+02, 1.02240E+03
 4.76649E+02, 9.79800E+02
 4.77867E+02, 9.41000E+02
 4.79085E+02, 9.13200E+02
 4.80302E+02, 8.90800E+02
 4.81519E+02, 8.76000E+02
 4.82736E+02, 8.48800E+02
 4.83953E+02, 8.46400E+02
 4.85169E+02, 8.31000E+02
 4.86385E+02, 8.26200E+02
 4.87601E+02, 8.11600E+02
 4.88816E+02, 8.09400E+02
 4.90032E+02, 8.04400E+02
 4.91247E+02, 7.97600E+02
 4.92462E+02, 7.95400E+02
 4.93676E+02, 7.88200E+02
 4.94890E+02, 7.96800E+02
 4.96105E+02, 7.88200E+02
 4.97318E+02, 7.86000E+02
 4.98532E+02, 7.85800E+02
 4.99745E+02, 7.80400E+02
 5.00958E+02, 7.78200E+02
 5.02171E+02, 7.78200E+02
 5.03384E+02, 7.80200E+02
 5.04596E+02, 7.78600E+02
 5.05808E+02, 7.75200E+02
 5.07020E+02, 7.71000E+02
 5.08231E+02, 7.68000E+02
 5.09442E+02, 7.68400E+02
 5.10653E+02, 7.68400E+02
 5.11864E+02, 7.65600E+02
 5.13075E+02, 7.65000E+02
 5.14285E+02, 7.70400E+02
 5.15495E+02, 7.72000E+02
 5.16705E+02, 7.68400E+02
 5.17914E+02, 7.64600E+02
 5.19123E+02, 7.64600E+02
 5.20332E+02, 7.63400E+02
 5.21541E+02, 7.64000E+02
 5.22750E+02, 7.67200E+02
 5.23958E+02, 7.62600E+02
 5.25166E+02, 7.65000E+02
 5.26373E+02, 7.62800E+02
 5.27581E+02, 7.57600E+02
 5.28788E+02, 7.62600E+02
 5.29995E+02, 7.62200E+02
 5.31202E+02, 7.60400E+02
 5.32408E+02, 7.60400E+02
 5.33614E+02, 7.58800E+02
 5.34820E+02, 7.58800E+02
 5.36026E+02, 7.59600E+02
 5.37231E+02, 7.63200E+02
 5.38437E+02, 7.62600E+02
 5.39641E+02, 7.61600E+02
 5.40846E+02, 7.60400E+02
 5.42051E+02, 7.55000E+02
 5.43255E+02, 7.57800E+02
 5.44459E+02, 7.66600E+02
 5.45662E+02, 7.61600E+02
 5.46866E+02, 7.59000E+02
 5.48069E+02, 7.59000E+02
 5.49272E+02, 7.54600E+02
 5.50474E+02, 7.57200E+02
 5.51677E+02, 7.60800E+02
 5.52879E+02, 7.60000E+02
 5.54081E+02, 7.59400E+02
 5.55282E+02, 7.58800E+02
 5.56484E+02, 7.53200E+02
 5.57685E+02, 7.59600E+02
 5.58886E+02, 7.54800E+02
 5.60087E+02, 7.56200E+02
 5.61287E+02, 7.54200E+02
 5.62487E+02, 7.53000E+02
 5.63687E+02, 7.55200E+02
 5.64887E+02, 7.56400E+02
 5.66086E+02, 7.51800E+02
 5.67285E+02, 7.59200E+02
 5.68484E+02, 7.51000E+02
 5.69682E+02, 7.55000E+02
 5.70881E+02, 7.56600E+02
 5.72079E+02, 7.55000E+02
 5.73277E+02, 7.53000E+02
 5.74474E+02, 7.51600E+02
 5.75672E+02, 7.52000E+02
 5.76869E+02, 7.53800E+02
 5.78066E+02, 7.53400E+02
 5.79262E+02, 7.53000E+02
 5.80459E+02, 7.50400E+02
 5.81655E+02, 7.53400E+02
 5.82851E+02, 7.52200E+02
 5.84046E+02, 7.53000E+02
 5.85242E+02, 7.53000E+02
 5.86437E+02, 7.52800E+02
 5.87631E+02, 7.51600E+02
 5.88826E+02, 7.50600E+02
 5.90020E+02, 7.54200E+02
 5.91214E+02, 7.55400E+02
 5.92408E+02, 7.53600E+02
 5.93602E+02, 7.51200E+02
 5.94795E+02, 7.53600E+02
 5.95988E+02, 7.50200E+02
 5.97181E+02, 7.54800E+02
 5.98374E+02, 7.53000E+02
 5.99566E+02, 7.56200E+02
 6.00758E+02, 7.53400E+02
 6.01950E+02, 7.56200E+02
 6.03141E+02, 7.53000E+02
 6.04333E+02, 7.50600E+02
 6.05524E+02, 7.53200E+02
 6.06715E+02, 7.51200E+02
 6.07905E+02, 7.54200E+02
 6.09096E+02, 7.56400E+02
 6.10286E+02, 7.54200E+02
 6.11475E+02, 7.54200E+02
 6.12665E+02, 7.49200E+02
 6.13854E+02, 7.50400E+02
 6.15043E+02, 7.54800E+02
 6.16232E+02, 7.52000E+02
 6.17421E+02, 7.53000E+02
 6.18609E+02, 7.54200E+02
 6.19797E+02, 7.51600E+02
 6.20985E+02, 7.53000E+02
 6.22173E+02, 7.50000E+02
 6.23360E+02, 7.52800E+02
 6.24547E+02, 7.54800E+02
 6.25734E+02, 7.52400E+02
 6.26920E+02, 7.54000E+02
 6.28107E+02, 7.57800E+02
 6.29293E+02, 7.53600E+02
 6.30479E+02, 7.55200E+02
 6.31664E+02, 7.52600E+02
 6.32849E+02, 7.53000E+02
 6.34034E+02, 7.50600E+02
 6.35219E+02, 7.50000E+02
 6.36404E+02, 7.53200E+02
 6.37588E+02, 7.52600E+02
 6.38772E+02, 7.53200E+02
 6.39956E+02, 7.53600E+02
 6.41140E+02, 7.53600E+02
 6.42323E+02, 7.48800E+02
 6.43506E+02, 7.50200E+02
 6.44689E+02, 7.53200E+02
 6.45871E+02, 7.49400E+02
 6.47054E+02, 7.53000E+02
 6.48236E+02, 7.56200E+02
 6.49418E+02, 7.53800E+02
 6.50599E+02, 7.57600E+02
 6.51781E+02, 7.58200E+02
 6.52962E+02, 7.60000E+02
 6.54142E+02, 7.60800E+02
 6.55323E+02, 7.57800E+02
 6.56503E+02, 7.57800E+02
 6.57683E+02, 7.54600E+02
 6.58863E+02, 7.53800E+02
 6.60043E+02, 7.54000E+02
 6.61222E+02, 7.48600E+02
 6.62401E+02, 7.50600E+02
 6.63580E+02, 7.55400E+02
 6.64759E+02, 7.51200E+02
 6.65937E+02, 7.51800E+02
 6.67115E+02, 7.45200E+02
 6.68293E+02, 7.46600E+02
 6.69470E+02, 7.52000E+02
 6.70648E+02, 7.50800E+02
 6.71825E+02, 7.52800E+02
 6.73002E+02, 7.48200E+02
 6.74178E+02, 7.48800E+02
 6.75355E+02, 7.53000E+02
 6.76531E+02, 7.48600E+02
 6.77707E+02, 7.49000E+02
 6.78882E+02, 7.50600E+02
 6.80058E+02, 7.53800E+02
 6.81233E+02, 7.51200E+02
 6.82408E+02, 7.50200E+02
 6.83582E+02, 7.51000E+02
 6.84756E+02, 7.54600E+02
 6.85931E+02, 7.53600E+02
 6.87104E+02, 7.54000E+02
 6.88278E+02, 7.57800E+02
 6.89451E+02, 7.53600E+02
 6.90625E+02, 7.55800E+02
 6.91797E+02, 7.57600E+02
 6.92970E+02, 7.57600E+02
 6.94142E+02, 7.62800E+02
 6.95315E+02, 7.60600E+02
 6.96486E+02, 7.67000E+02
 6.97658E+02, 7.67400E+02
 6.98829E+02, 7.67600E+02
 7.00001E+02, 7.67200E+02
 7.01171E+02, 7.62600E+02
 7.02342E+02, 7.64400E+02
 7.03512E+02, 7.58800E+02
 7.04683E+02, 7.56000E+02
 7.05853E+02, 7.53600E+02
 7.07022E+02, 7.54800E+02
 7.08192E+02, 7.56000E+02
 7.09361E+02, 7.53800E+02
 7.10530E+02, 7.54600E+02
 7.11698E+02, 7.53600E+02
 7.12867E+02, 7.50800E+02
 7.14035E+02, 7.53400E+02
 7.15203E+02, 7.49200E+02
 7.16370E+02, 7.49800E+02
 7.17538E+02, 7.52600E+02
 7.18705E+02, 7.51200E+02
 7.19872E+02, 7.48600E+02
 7.21039E+02, 7.56000E+02
 7.22205E+02, 7.51000E+02
 7.23371E+02, 7.52600E+02
 7.24537E+02, 7.52000E+02
 7.25703E+02, 7.49600E+02
 7.26868E+02, 7.52200E+02
 7.28034E+02, 7.46400E+02
 7.29199E+02, 7.48600E+02
 7.30363E+02, 7.47800E+02
 7.31528E+02, 7.47000E+02
 7.32692E+02, 7.43600E+02
 7.33856E+02, 7.48800E+02
 7.35020E+02, 7.51800E+02
 7.36183E+02, 7.50000E+02
 7.37346E+02, 7.47200E+02
 7.38509E+02, 7.45400E+02
 7.39672E+02, 7.50600E+02
 7.40835E+02, 7.50000E+02
 7.41997E+02, 7.51800E+02
 7.43159E+02, 7.53000E+02
 7.44321E+02, 7.49400E+02
 7.45482E+02, 7.45000E+02
 7.46643E+02, 7.51200E+02
 7.47804E+02, 7.47000E+02
 7.48965E+02, 7.48800E+02
 7.50126E+02, 7.49600E+02
 7.51286E+02, 7.47000E+02
 7.52446E+02, 7.47600E+02
 7.53606E+02, 7.50800E+02
 7.54765E+02, 7.50600E+02
 7.55925E+02, 7.49200E+02
 7.57084E+02, 7.52400E+02
 7.58242E+02, 7.47600E+02
 7.59401E+02, 7.49400E+02
 7.60559E+02, 7.48600E+02
 7.61717E+02, 7.55200E+02
 7.62875E+02, 7.48800E+02
 7.64033E+02, 7.48000E+02
 7.65190E+02, 7.50000E+02
 7.66347E+02, 7.51800E+02
 7.67504E+02, 7.49400E+02
 7.68661E+02, 7.52000E+02
 7.69817E+02, 7.51400E+02
 7.70973E+02, 7.52600E+02
 7.72129E+02, 7.49800E+02
 7.73285E+02, 7.50400E+02
 7.74440E+02, 7.52400E+02
 7.75595E+02, 7.51000E+02
 7.76750E+02, 7.49400E+02
 7.77905E+02, 7.55600E+02
 7.79059E+02, 7.49800E+02
 7.80213E+02, 7.52000E+02
 7.81367E+02, 7.51200E+02
 7.82521E+02, 7.51800E+02
 7.83674E+02, 7.52800E+02
 7.84827E+02, 7.50000E+02
 7.85980E+02, 7.49400E+02
 7.87133E+02, 7.50200E+02
 7.88285E+02, 7.52800E+02
 7.89437E+02, 7.54200E+02
 7.90589E+02, 7.57600E+02
 7.91741E+02, 7.54200E+02
 7.92893E+02, 7.58000E+02
 7.94044E+02, 7.58800E+02
 7.95195E+02, 7.64200E+02
 7.96345E+02, 7.62000E+02
 7.97496E+02, 7.60200E+02
 7.98646E+02, 7.61800E+02
 7.99796E+02, 7.62200E+02
 8.00946E+02, 7.64800E+02
 8.02095E+02, 7.61200E+02
 8.03245E+02, 7.62400E+02
 8.04394E+02, 7.62200E+02
 8.05542E+02, 7.58800E+02
 8.06691E+02, 7.61000E+02
 8.07839E+02, 7.60000E+02
 8.08987E+02, 7.54200E+02
 8.10135E+02, 7.55200E+02
 8.11283E+02, 7.60400E+02
 8.12430E+02, 7.55800E+02
 8.13577E+02, 7.59200E+02
 8.14724E+02, 7.55800E+02
 8.15870E+02, 7.59200E+02
 8.17017E+02, 7.56400E+02
 8.18163E+02, 7.60200E+02
 8.19308E+02, 7.53600E+02
 8.20454E+02, 7.58200E+02
 8.21599E+02, 7.57600E+02
 8.22745E+02, 7.53600E+02
 8.23889E+02, 7.59200E+02
 8.25034E+02, 7.56800E+02
 8.26178E+02, 7.54200E+02
 8.27323E+02, 7.53000E+02
 8.28466E+02, 7.55800E+02
 8.29610E+02, 7.54200E+02
 8.30753E+02, 7.55000E+02
 8.31897E+02, 7.52600E+02
 8.33040E+02, 7.57800E+02
 8.34182E+02, 7.54000E+02
 8.35325E+02, 7.53400E+02
 8.36467E+02, 7.57200E+02
 8.37609E+02, 7.53600E+02
 8.38750E+02, 7.58000E+02
 8.39892E+02, 7.53600E+02
 8.41033E+02, 7.55400E+02
 8.42174E+02, 7.58200E+02
 8.43315E+02, 7.54600E+02
 8.44455E+02, 7.51400E+02
 8.45596E+02, 7.59800E+02
 8.46736E+02, 7.53000E+02
 8.47875E+02, 7.57200E+02
 8.49015E+02, 7.52600E+02
 8.50154E+02, 7.53600E+02
 8.51293E+02, 7.57000E+02
 8.52432E+02, 7.52200E+02
 8.53570E+02, 7.54600E+02
 8.54709E+02, 7.56200E+02
 8.55847E+02, 7.52800E+02
 8.56985E+02, 7.53600E+02
 8.58122E+02, 7.54200E+02
 8.59260E+02, 7.52200E+02
 8.60397E+02, 7.57400E+02
 8.61534E+02, 7.54200E+02
 8.62670E+02, 7.50800E+02
 8.63806E+02, 7.57800E+02
 8.64943E+02, 7.52000E+02
 8.66078E+02, 7.56000E+02
 8.67214E+02, 7.54000E+02
 8.68350E+02, 7.50800E+02
 8.69485E+02, 7.54000E+02
 8.70620E+02, 7.55400E+02
 8.71754E+02, 7.55200E+02
 8.72889E+02, 7.54400E+02
 8.74023E+02, 7.54600E+02
 8.75157E+02, 7.54400E+02
 8.76291E+02, 7.52600E+02
 8.77424E+02, 7.53400E+02
 8.78557E+02, 7.51200E+02
 8.79690E+02, 7.55000E+02
 8.80823E+02, 7.57800E+02
 8.81955E+02, 7.58000E+02
 8.83088E+02, 7.52000E+02
 8.84220E+02, 7.57000E+02
 8.85351E+02, 7.54000E+02
 8.86483E+02, 7.54600E+02
 8.87614E+02, 7.54200E+02
 8.88745E+02, 7.56800E+02
 8.89876E+02, 7.55400E+02
 8.91007E+02, 7.55200E+02
 8.92137E+02, 7.54400E+02
 8.93267E+02, 7.55000E+02
 8.94397E+02, 7.55800E+02
 8.95527E+02, 7.53200E+02
 8.96656E+02, 7.53600E+02
 8.97785E+02, 7.53400E+02
 8.98914E+02, 7.56000E+02
 9.00043E+02, 7.50600E+02
 9.01171E+02, 7.52600E+02
 9.02299E+02, 7.55000E+02
 9.03427E+02, 7.52800E+02
 9.04555E+02, 7.55600E+02
 9.05682E+02, 7.50800E+02
 9.06809E+02, 7.51400E+02
 9.07936E+02, 7.52800E+02
 9.09063E+02, 7.52400E+02
 9.10189E+02, 7.52600E+02
 9.11316E+02, 7.55800E+02
 9.12442E+02, 7.51400E+02
 9.13567E+02, 7.53200E+02
 9.14693E+02, 7.51400E+02
 9.15818E+02, 7.51600E+02
 9.16943E+02, 7.50800E+02
 9.18068E+02, 7.51400E+02
 9.19193E+02, 7.49200E+02
 9.20317E+02, 7.56000E+02
 9.21441E+02, 7.50600E+02
 9.22565E+02, 7.54800E+02
 9.23688E+02, 7.52800E+02
 9.24812E+02, 7.50200E+02
 9.25935E+02, 7.53200E+02
 9.27058E+02, 7.50800E+02
 9.28180E+02, 7.53600E+02
 9.29303E+02, 7.49400E+02
 9.30425E+02, 7.54400E+02
 9.31547E+02, 7.49600E+02
 9.32668E+02, 7.50000E+02
 9.33790E+02, 7.49000E+02
 9.34911E+02, 7.48800E+02
 9.36032E+02, 7.50200E+02
 9.37153E+02, 7.53000E+02
 9.38273E+02, 7.48600E+02
 9.39393E+02, 7.47400E+02
 9.40513E+02, 7.49000E+02
 9.41633E+02, 7.49400E+02
 9.42753E+02, 7.48600E+02
 9.43872E+02, 7.51600E+02
 9.44991E+02, 7.52400E+02
 9.46110E+02, 7.46200E+02
 9.47228E+02, 7.50000E+02
 9.48347E+02, 7.56400E+02
 9.49465E+02, 7.49600E+02
 9.50582E+02, 7.48200E+02
 9.51700E+02, 7.53800E+02
 9.52817E+02, 7.47200E+02
 9.53934E+02, 7.49400E+02
 9.55051E+02, 7.49400E+02
 9.56168E+02, 7.50800E+02
 9.57284E+02, 7.48400E+02
 9.58401E+02, 7.48800E+02
 9.59516E+02, 7.51600E+02
 9.60632E+02, 7.50000E+02
 9.61748E+02, 7.49000E+02
 9.62863E+02, 7.52200E+02
 9.63978E+02, 7.50600E+02
 9.65093E+02, 7.49400E+02
 9.66207E+02, 7.47400E+02
 9.67321E+02, 7.49800E+02
 9.68435E+02, 7.50400E+02
 9.69549E+02, 7.50600E+02
 9.70663E+02, 7.48400E+02
 9.71776E+02, 7.49200E+02
 9.72889E+02, 7.51600E+02
 9.74002E+02, 7.51400E+02
 9.75114E+02, 7.49400E+02
 9.76227E+02, 7.46000E+02
 9.77339E+02, 7.53800E+02
 9.78451E+02, 7.50000E+02
 9.79562E+02, 7.50400E+02
 9.80674E+02, 7.49400E+02
 9.81785E+02, 7.47600E+02
 9.82896E+02, 7.49000E+02
 9.84006E+02, 7.46600E+02
 9.85117E+02, 7.50000E+02
 9.86227E+02, 7.48200E+02
 9.87337E+02, 7.48600E+02
 9.88447E+02, 7.50200E+02
 9.89556E+02, 7.45200E+02
 9.90665E+02, 7.48800E+02
 9.91775E+02, 7.50800E+02
 9.92883E+02, 7.50200E+02
 9.93992E+02, 7.48200E+02
 9.95100E+02, 7.49000E+02
 9.96208E+02, 7.49400E+02
 9.97316E+02, 7.50800E+02
 9.98424E+02, 7.49400E+02
 9.99531E+02, 7.51800E+02
 1.00064E+03, 7.47400E+02
 1.00174E+03, 7.51000E+02
 1.00285E+03, 7.53200E+02
 1.00396E+03, 7.51200E+02
 1.00506E+03, 7.51000E+02
 1.00617E+03, 7.53200E+02
 1.00728E+03, 7.51200E+02
 1.00838E+03, 7.51800E+02
 1.00949E+03, 7.48400E+02
 1.01059E+03, 7.49200E+02
 1.01170E+03, 7.49400E+02
 1.01280E+03, 7.52800E+02
 1.01390E+03, 7.51600E+02
 1.01501E+03, 7.52200E+02
 1.01611E+03, 7.49600E+02
 1.01722E+03, 7.51400E+02
 1.01832E+03, 7.51200E+02
 1.01942E+03, 7.51000E+02
 1.02053E+03, 7.51800E+02
 1.02163E+03, 7.54400E+02
 1.02273E+03, 7.54000E+02
 1.02383E+03, 7.54600E+02
 1.02493E+03, 7.55200E+02
 1.02604E+03, 7.53400E+02
 1.02714E+03, 7.53800E+02
 1.02824E+03, 7.52800E+02
 1.02934E+03, 7.54200E+02
 1.03044E+03, 7.57200E+02
 1.03154E+03, 7.56000E+02
 1.03264E+03, 7.56400E+02
 1.03374E+03, 7.58800E+02
 1.03484E+03, 7.54400E+02
 1.03594E+03, 7.60200E+02
 1.03704E+03, 7.60400E+02
 1.03814E+03, 7.60400E+02
 1.03924E+03, 7.64600E+02
 1.04034E+03, 7.60800E+02
 1.04143E+03, 7.63400E+02
 1.04253E+03, 7.64400E+02
 1.04363E+03, 7.67600E+02
 1.04473E+03, 7.66800E+02
 1.04583E+03, 7.65000E+02
 1.04692E+03, 7.66000E+02
 1.04802E+03, 7.60800E+02
 1.04912E+03, 7.64000E+02
 1.05021E+03, 7.62600E+02
 1.05131E+03, 7.62000E+02
 1.05241E+03, 7.58600E+02
 1.05350E+03, 7.56200E+02
 1.05460E+03, 7.56800E+02
 1.05569E+03, 7.59000E+02
 1.05679E+03, 7.54600E+02
 1.05788E+03, 7.53200E+02
 1.05898E+03, 7.54400E+02
 1.06007E+03, 7.51600E+02
 1.06116E+03, 7.54200E+02
 1.06226E+03, 7.53000E+02
 1.06335E+03, 7.58800E+02
 1.06445E+03, 7.56200E+02
 1.06554E+03, 7.60400E+02
 1.06663E+03, 7.60800E+02
 1.06772E+03, 7.56800E+02
 1.06882E+03, 7.60000E+02
 1.06991E+03, 7.56400E+02
 1.07100E+03, 7.53000E+02
 1.07209E+03, 7.59800E+02
 1.07318E+03, 7.54400E+02
 1.07428E+03, 7.50000E+02
 1.07537E+03, 7.51200E+02
 1.07646E+03, 7.52800E+02
 1.07755E+03, 7.53400E+02
 1.07864E+03, 7.51400E+02
 1.07973E+03, 7.50200E+02
 1.08082E+03, 7.55200E+02
 1.08191E+03, 7.56200E+02
 1.08300E+03, 7.56000E+02
 1.08409E+03, 7.53200E+02
 1.08518E+03, 7.55000E+02
 1.08626E+03, 7.50600E+02
 1.08735E+03, 7.55400E+02
 1.08844E+03, 7.53400E+02
 1.08953E+03, 7.51600E+02
 1.09062E+03, 7.52800E+02
 1.09170E+03, 7.54600E+02
 1.09279E+03, 7.51400E+02
 1.09388E+03, 7.49600E+02
 1.09497E+03, 7.51600E+02
 1.09605E+03, 7.52600E+02
 1.09714E+03, 7.51600E+02
 1.09822E+03, 7.45800E+02
 1.09931E+03, 7.50000E+02
 1.10040E+03, 7.54400E+02
 1.10148E+03, 7.50000E+02
 1.10257E+03, 7.47400E+02
 1.10365E+03, 7.50200E+02
 1.10474E+03, 7.51400E+02
 1.10582E+03, 7.49600E+02
 1.10690E+03, 7.50400E+02
 1.10799E+03, 7.49600E+02
 1.10907E+03, 7.52400E+02
 1.11016E+03, 7.50200E+02
 1.11124E+03, 7.51400E+02
 1.11232E+03, 7.53000E+02
 1.11341E+03, 7.53400E+02
 1.11449E+03, 7.52200E+02
 1.11557E+03, 7.50400E+02
 1.11665E+03, 7.55800E+02
 1.11773E+03, 7.49400E+02
 1.11882E+03, 7.51200E+02
 1.11990E+03, 7.49200E+02
 1.12098E+03, 7.54000E+02
 1.12206E+03, 7.53800E+02
 1.12314E+03, 7.52800E+02
 1.12422E+03, 7.52400E+02
 1.12530E+03, 7.53600E+02
 1.12638E+03, 7.50800E+02
 1.12746E+03, 7.53400E+02
 1.12854E+03, 7.51400E+02
 1.12962E+03, 7.53000E+02
 1.13070E+03, 7.55800E+02
 1.13178E+03, 7.52600E+02
 1.13286E+03, 7.52000E+02
 1.13394E+03, 7.54200E+02
 1.13501E+03, 7.52600E+02
 1.13609E+03, 7.53400E+02
 1.13717E+03, 7.57400E+02
 1.13825E+03, 7.52400E+02
 1.13932E+03, 7.48200E+02
 1.14040E+03, 7.53800E+02
 1.14148E+03, 7.53800E+02
 1.14255E+03, 7.56600E+02
 1.14363E+03, 7.51800E+02
 1.14471E+03, 7.55000E+02
 1.14578E+03, 7.51600E+02
 1.14686E+03, 7.62200E+02
 1.14793E+03, 7.55000E+02
 1.14901E+03, 7.57400E+02
 1.15008E+03, 7.54200E+02
 1.15116E+03, 7.56800E+02
 1.15223E+03, 7.58800E+02
 1.15331E+03, 7.57200E+02
 1.15438E+03, 7.54600E+02
 1.15546E+03, 7.62200E+02
 1.15653E+03, 7.67200E+02
 1.15760E+03, 7.65600E+02
 1.15867E+03, 7.71400E+02
 1.15975E+03, 7.80000E+02
 1.16082E+03, 7.79400E+02
 1.16189E+03, 7.84000E+02
 1.16296E+03, 7.85000E+02
 1.16404E+03, 7.82400E+02
 1.16511E+03, 7.79600E+02
 1.16618E+03, 7.79600E+02
 1.16725E+03, 7.76600E+02
 1.16832E+03, 7.73200E+02
 1.16939E+03, 7.66400E+02
 1.17046E+03, 7.64600E+02
 1.17153E+03, 7.60400E+02
 1.17260E+03, 7.60800E+02
 1.17367E+03, 7.58000E+02
 1.17474E+03, 7.53800E+02
 1.17581E+03, 7.58000E+02
 1.17688E+03, 7.51800E+02
 1.17795E+03, 7.51600E+02
 1.17902E+03, 7.54200E+02
 1.18009E+03, 7.51400E+02
 1.18116E+03, 7.53000E+02
 1.18222E+03, 7.54200E+02
 1.18329E+03, 7.52800E+02
 1.18436E+03, 7.50600E+02
 1.18543E+03, 7.49800E+02
 1.18649E+03, 7.51000E+02
 1.18756E+03, 7.50400E+02
 1.18863E+03, 7.49400E+02
 1.18969E+03, 7.50400E+02
 1.19076E+03, 7.50000E+02
 1.19183E+03, 7.47000E+02
 1.19289E+03, 7.53400E+02
 1.19396E+03, 7.48000E+02
 1.19502E+03, 7.47400E+02
 1.19609E+03, 7.48400E+02
 1.19715E+03, 7.52600E+02
 1.19822E+03, 7.48200E+02
 1.19928E+03, 7.46000E+02
 1.20034E+03, 7.48200E+02
 1.20141E+03, 7.51000E+02
 1.20247E+03, 7.50400E+02
 1.20354E+03, 7.48000E+02
 1.20460E+03, 7.48000E+02
 1.20566E+03, 7.47000E+02
 1.20672E+03, 7.50800E+02
 1.20779E+03, 7.50000E+02
 1.20885E+03, 7.49000E+02
 1.20991E+03, 7.48800E+02
 1.21097E+03, 7.48000E+02
 1.21203E+03, 7.49600E+02
 1.21310E+03, 7.46600E+02
 1.21416E+03, 7.47200E+02
 1.21522E+03, 7.48000E+02
 1.21628E+03, 7.45800E+02
 1.21734E+03, 7.44800E+02
 1.21840E+03, 7.48800E+02
 1.21946E+03, 7.52000E+02
 1.22052E+03, 7.45600E+02
 1.22158E+03, 7.50600E+02
 1.22264E+03, 7.49200E+02
 1.22370E+03, 7.51600E+02
 1.22475E+03, 7.46200E+02
 1.22581E+03, 7.50600E+02
 1.22687E+03, 7.50600E+02
 1.22793E+03, 7.47800E+02
 1.22899E+03, 7.49800E+02
 1.23004E+03, 7.48800E+02
 1.23110E+03, 7.48000E+02
 1.23216E+03, 7.50600E+02
 1.23322E+03, 7.53600E+02
 1.23427E+03, 7.49200E+02
 1.23533E+03, 7.49000E+02
 1.23639E+03, 7.52600E+02
 1.23744E+03, 7.49800E+02
 1.23850E+03, 7.49800E+02
 1.23955E+03, 7.53000E+02
 1.24061E+03, 7.50000E+02
 1.24166E+03, 7.52200E+02
 1.24272E+03, 7.51200E+02
 1.24377E+03, 7.49400E+02
 1.24483E+03, 7.50400E+02
 1.24588E+03, 7.48400E+02
 1.24694E+03, 7.51000E+02
 1.24799E+03, 7.49000E+02
 1.24904E+03, 7.46400E+02
 1.25010E+03, 7.49400E+02
 1.25115E+03, 7.51800E+02
 1.25220E+03, 7.49600E+02
 1.25325E+03, 7.50600E+02
 1.25431E+03, 7.52200E+02
 1.25536E+03, 7.49800E+02
 1.25641E+03, 7.49200E+02
 1.25746E+03, 7.46200E+02
 1.25851E+03, 7.47800E+02
 1.25956E+03, 7.45800E+02
 1.26062E+03, 7.51600E+02
 1.26167E+03, 7.44600E+02
 1.26272E+03, 7.50000E+02
 1.26377E+03, 7.53000E+02
 1.26482E+03, 7.49200E+02
 1.26587E+03, 7.47400E+02
 1.26692E+03, 7.46600E+02
